Time(s),MC SW Overview - Actual Position(mm),MC SW Force Control - Measured Force(N),MC SW Force Control - Actual Acceleration(m/s^2),MC SW Overview - Actual Velocity(m/s),
0,-0.158,-1.4,4.203,-0.0016,
0.002,-0.1593,-1.2,4.547,0.004266,
0.004,-0.1617,-1.5,-0.756,-0.0016,
0.006,-0.1593,-1.5,1.842,0.002666,
0.008,-0.1678,-1.5,-5.435,-0.008711,
0.01,-0.1794,-1.4,6.669,-0.003822,
0.012,-0.18,-1.3,4.669,-0.000533,
0.014,-0.1843,-1.7,-0.625,0.002666,
0.016,-0.1982,-1.9,1.446,-0.004355,
0.018,-0.2348,-2.3,-9.231,-0.020622,
0.02,-0.2977,-2.7,-5.497,-0.036355,
0.022,-0.3966,-2.7,-7.014,-0.052088,
0.024,-0.5418,-3,-13.065,-0.075911,
0.026,-0.7213,-2.8,-12.996,-0.095466,
0.028,-0.9489,-2.7,-15.835,-0.119288,
0.03,-1.2145,-2.9,-4.818,-0.135111,
0.032,-1.5147,-2.6,-10.179,-0.154577,
0.034,-1.859,-2.9,-14.087,-0.176355,
0.036,-2.2313,-2.5,-12.696,-0.190933,
0.038,-2.6353,-2.2,-5.495,-0.206666,
0.04,-3.0687,-2.3,2.09,-0.216444,
0.042,-3.5252,-2.1,1.048,-0.226755,
0.044,-4.0031,-2.3,-1.585,-0.237599,
0.046,-4.5006,-2.1,-6.528,-0.250133,
0.048,-5.0212,-1.9,-3.209,-0.262577,
0.05,-5.5492,-2,-0.31,-0.266933,
0.052,-6.0924,-1.9,-3.59,-0.275111,
0.054,-6.6582,-2.1,-5.467,-0.281066,
0.056,-7.2282,-2,-2.811,-0.2864,
0.058,-7.8172,-1.8,-3.86,-0.297244,
0.06,-8.4178,-2.1,-2.031,-0.303288,
0.062,-9.0392,-2,-6.149,-0.3136,
0.064,-9.6849,-2.3,-7.314,-0.325511,
0.066,-10.3465,-1.9,-4.344,-0.331466,
0.068,-11.0362,-1.9,-5.194,-0.345066,
0.07,-11.7442,-2.1,1.353,-0.354755,
0.072,-12.4773,-2,-1.265,-0.364622,
0.074,-13.2225,-2.1,-11.065,-0.377066,
0.076,-13.9769,-2.1,-1.189,-0.3776,
0.078,-14.7374,-2,-2.896,-0.385155,
0.08,-15.5022,-2.2,0.984,-0.384177,
0.082,-16.2773,-2.1,-3.937,-0.389511,
0.084,-17.0696,-2.4,-5.774,-0.397688,
0.086,-17.8813,-2.1,-6.832,-0.408,
0.088,-18.7083,-2,-7.185,-0.416622,
0.09,-19.5586,-2.3,-4.143,-0.427022,
0.092,-20.432,-1.9,-5.099,-0.441599,
0.094,-21.3335,-2,-8.769,-0.453599,
0.096,-22.2685,-1.7,-8.72,-0.469244,
0.098,-23.2311,-1.6,-2.762,-0.485066,
0.1,-24.1905,-1.4,7.074,-0.474666,
0.102,-25.1396,-1.3,2.399,-0.474666,
0.104,-26.0637,-1.3,5.574,-0.457333,
0.106,-26.9682,-1.4,5.852,-0.448088,
0.108,-27.8496,-1.4,5.452,-0.441599,
0.11,-28.7169,-1.5,3.221,-0.431288,
0.112,-29.5836,-1.6,1.923,-0.430755,
0.114,-30.4515,-1.8,-4.569,-0.432355,
0.116,-31.3335,-1.8,-5.729,-0.442222,
0.118,-32.2343,-1.7,-5.938,-0.452977,
0.12,-33.1633,-1.8,-9.252,-0.469866,
0.122,-34.1063,-1.8,-8.194,-0.479022,
0.124,-35.045,-1.9,-1.425,-0.468177,
0.126,-35.988,-1.7,2.697,-0.468711,
0.128,-36.9212,-1.8,3.23,-0.464355,
0.13,-37.8459,-1.7,3.01,-0.461688,
0.132,-38.77,-2,0.375,-0.461688,
0.134,-39.7032,-1.8,0.736,-0.464977,
0.136,-40.645,-1.9,-5.841,-0.474222,
0.138,-41.5953,-1.8,-4.314,-0.475288,
0.14,-42.5633,-1.5,-3.157,-0.483911,
0.142,-43.5423,-1.5,1.03,-0.483911,
0.144,-44.5116,-1.3,9.96,-0.482844,
0.146,-45.4607,-1.3,5.594,-0.473155,
0.148,-46.4012,-1.3,4.299,-0.467111,
0.15,-47.3161,-1.2,3.398,-0.455733,
0.152,-48.2164,-1.2,-1.781,-0.449777,
0.154,-49.11,-1,4.3,-0.446044,
0.156,-49.9986,-1.1,2.598,-0.443733,
0.158,-50.8769,-1.2,3.858,-0.438311,
0.16,-51.7571,-1,-4.455,-0.439999,
0.162,-52.6244,-1,2.49,-0.433511,
0.164,-53.485,-0.9,6.224,-0.427555,
0.166,-54.3279,-1,6.404,-0.417777,
0.168,-55.1488,-1.2,6.342,-0.4064,
0.17,-55.9502,-0.9,2.594,-0.399288,
0.172,-56.7271,-1.2,4.402,-0.387288,
0.174,-57.4919,-1.1,5.526,-0.381422,
0.176,-58.2439,-1.1,4.164,-0.373333,
0.178,-58.9928,-1.3,0.319,-0.373866,
0.18,-59.735,-1,1.167,-0.369511,
0.182,-60.4686,-1,1.35,-0.365155,
0.184,-61.1943,-0.8,2.063,-0.361866,
0.186,-61.9096,-0.9,1.134,-0.357511,
0.188,-62.6085,-1,3.195,-0.344,
0.19,-63.2884,-1,-2.904,-0.339644,
0.192,-63.9311,-5.7,9.006,-0.318488,
0.194,-64.5152,-1.1,11.844,-0.289688,
0.196,-65.0816,-2.7,5.011,-0.281511,
0.198,-65.6072,-2.6,12.864,-0.256088,
0.2,-66.1082,-2.5,2.434,-0.245688,
0.202,-66.5794,-2.1,6.164,-0.229955,
0.204,-67.025,-3.7,6.062,-0.221333,
0.206,-67.4486,-3,6.145,-0.209422,
0.208,-67.841,-3.6,8.693,-0.191466,
0.21,-68.2219,-3.5,3.336,-0.1888,
0.212,-68.5826,-4.4,5.761,-0.178488,
0.214,-68.9232,-4.8,5.935,-0.172,
0.216,-69.2485,-5.8,1.876,-0.163288,
0.218,-69.5494,-6.6,4.822,-0.147555,
0.22,-69.843,-7.2,-0.575,-0.145422,
0.222,-70.1176,-8.1,5.869,-0.136088,
0.224,-70.3679,-15.2,8.876,-0.127999,
0.226,-70.5821,-23.9,14.284,-0.104711,
0.228,-70.7201,-30.7,21.007,-0.059199,
0.23,-70.7976,-34.2,15.783,-0.028799,
0.232,-70.8098,-35.1,17.207,-0.002222,
0.234,-70.7842,-33.2,8.564,0.010844,
0.236,-70.7555,-31.2,4.75,0.016266,
0.238,-70.7304,-30.2,-0.084,0.010844,
0.24,-70.7311,-29.5,-7.563,0.0016,
0.242,-70.7384,-29.6,-0.372,-0.005955,
0.244,-70.739,-30,1.742,-0.003822,
0.246,-70.7469,-30.5,7.289,-0.001066,
0.248,-70.7256,-30.8,16.596,0.022222,
0.25,-70.7329,-30,-4.458,0.0016,
0.252,-70.7201,-29.2,5.275,0.006488,
0.254,-70.678,-26.7,6.887,0.007022,
0.256,-70.631,-23.9,6.371,0.020533,
0.258,-70.5394,-20.4,12.517,0.054222,
0.26,-70.4533,-15.4,-5.306,0.051022,
0.262,-70.3526,-11.7,4.454,0.052622,
0.264,-70.2208,-8.8,9.231,0.063466,
0.266,-70.078,-7.1,6.151,0.073777,
0.268,-69.8973,-6.5,13.408,0.096,
0.27,-69.6764,-5.8,6.991,0.115022,
0.272,-69.4041,-5.2,14.885,0.142755,
0.274,-69.077,-4.9,18.232,0.172,
0.276,-68.6974,-3.8,13.727,0.197422,
0.278,-68.2829,-3.2,5.17,0.205688,
0.28,-67.816,-3.7,14.011,0.234399,
0.282,-67.3247,-2.9,5.504,0.247377,
0.284,-66.8285,-3.3,6.34,0.258755,
0.286,-66.3194,-2.4,0.328,0.254488,
0.288,-65.8373,-2.2,-11.53,0.229422,
0.29,-65.3557,-3.1,3.851,0.232711,
0.292,-64.9156,-2.3,-13.26,0.214311,
0.294,-64.5476,-3,-16.673,0.1888,
0.296,-64.2192,-2.9,-14.367,0.157333,
0.298,-63.9946,-2.9,-32.098,0.090577,
0.3,-63.8316,-3.3,-8.34,0.066755,
0.302,-63.7511,-3,-22.801,0.028711,
0.304,-63.781,-3.1,-30.321,-0.015199,
0.306,-63.8713,-3,-15.128,-0.051555,
0.308,-64.0416,-3,-26.019,-0.104711,
0.31,-64.2613,-3.5,-4.167,-0.119377,
0.312,-64.5482,-3.1,-14.708,-0.150311,
0.314,-64.9168,-3.2,-23.709,-0.1888,
0.316,-65.3276,-3.3,-15.85,-0.213777,
0.318,-65.7933,-3.7,-14.987,-0.239822,
0.32,-66.3042,-4.4,-8.289,-0.260444,
0.322,-66.8468,-4.4,-6.791,-0.274044,
0.324,-67.4217,-5.2,-8.998,-0.292444,
0.326,-68.004,-6.2,0.397,-0.290222,
0.328,-68.5844,-7.2,5.128,-0.283733,
0.33,-69.1759,-7.4,-2.056,-0.289777,
0.332,-69.7496,-8.5,6.085,-0.284266,
0.334,-70.2788,-9.5,4.577,-0.271822,
0.336,-70.761,-31.1,19.773,-0.230577,
0.338,-71.0924,-51.9,50.591,-0.137244,
0.34,-71.2505,-52.1,41.033,-0.051022,
0.342,-71.2016,-52.1,44.424,0.044,
0.344,-71.0179,-46.2,23.261,0.086311,
0.346,-70.8312,-33.3,0.809,0.090577,
0.348,-70.6664,-25.8,-1.965,0.086755,
0.35,-70.5895,-20.6,-28.478,0.035733,
0.352,-70.5614,-19.5,-15.325,0.007022,
0.354,-70.5388,-18.4,1.009,-0.0016,
0.356,-70.5339,-18.6,-0.168,-0.000533,
0.358,-70.5034,-18.4,11.975,0.025511,
0.36,-70.4662,-15.8,-7.705,0.021688,
0.362,-70.3941,-12.8,8.194,0.039644,
0.364,-70.2654,-9.3,15.533,0.069422,
0.366,-70.1091,-7.4,9.427,0.081422,
0.368,-69.9016,-7.4,14.24,0.115555,
0.37,-69.6532,-6.8,6.239,0.128533,
0.372,-69.37,-5.7,9.517,0.148088,
0.374,-69.0404,-5.6,14.267,0.172533,
0.376,-68.6766,-4.4,10.719,0.185511,
0.378,-68.2829,-3.7,3.697,0.196977,
0.38,-67.8441,-4.1,11.703,0.219199,
0.382,-67.3747,-3.2,5.612,0.237155,
0.384,-66.9023,-3.6,3.289,0.247911,
0.386,-66.4092,-2.7,2.373,0.248977,
0.388,-65.9386,-2.4,-11.2,0.226755,
0.39,-65.468,-3.2,5.751,0.228355,
0.392,-65.0163,-2.6,-7.234,0.219199,
0.394,-64.6294,-3.3,-17.56,0.199111,
0.396,-64.2821,-2.8,-17.025,0.163822,
0.398,-64.0239,-2.8,-28.368,0.106311,
0.4,-63.8213,-3.3,-11.995,0.085688,
0.402,-63.7083,-3.1,-23.69,0.050488,
0.404,-63.7254,-3.2,-35.623,-0.008088,
0.406,-63.7962,-3.1,-18.757,-0.042311,
0.408,-63.9555,-3.1,-23.149,-0.096533,
0.41,-64.1789,-3.7,-4.916,-0.118755,
0.412,-64.4701,-2.8,-14.041,-0.154133,
0.414,-64.846,-3.6,-24.435,-0.194222,
0.416,-65.2727,-3.9,-15.043,-0.219733,
0.418,-65.7555,-4.2,-14.93,-0.247466,
0.42,-66.2816,-4.9,-7.887,-0.266933,
0.422,-66.8401,-5.1,-9.664,-0.284355,
0.424,-67.4223,-5.6,-8.263,-0.296711,
0.426,-68.0193,-6.7,-4.644,-0.301155,
0.428,-68.6113,-7.7,6.377,-0.290222,
0.43,-69.2113,-7.8,4.279,-0.292977,
0.432,-69.7911,-9.1,8.048,-0.285866,
0.434,-70.3203,-10.4,12.074,-0.269688,
0.436,-70.8055,-33.5,19.375,-0.232711,
0.438,-71.1272,-52,48.624,-0.130222,
0.44,-71.2712,-52.1,43.806,-0.041777,
0.442,-71.1998,-52.1,46.957,0.055377,
0.444,-70.9953,-45.5,28.04,0.098222,
0.446,-70.8086,-32.5,-10.37,0.087288,
0.448,-70.6487,-25,-4.082,0.081866,
0.45,-70.5687,-20.1,-31.514,0.035288,
0.452,-70.5449,-19.1,-2.166,0.008711,
0.454,-70.5272,-17.9,3.363,-0.0016,
0.456,-70.5229,-18.2,3.178,0.003822,
0.458,-70.4961,-18.1,10.104,0.021155,
0.46,-70.454,-15.6,4.355,0.027644,
0.462,-70.3813,-12.7,4.683,0.039111,
0.464,-70.2562,-9.6,16.74,0.068355,
0.466,-70.1036,-7.9,4.921,0.081422,
0.468,-69.904,-7.3,12.684,0.106933,
0.47,-69.6648,-6.8,2.53,0.122577,
0.472,-69.3834,-6,10.518,0.145422,
0.474,-69.0587,-5.5,15.09,0.168711,
0.476,-68.6913,-4.3,9.184,0.183911,
0.478,-68.2988,-4,1.542,0.193688,
0.48,-67.8624,-4.4,12.216,0.220266,
0.482,-67.3991,-3.3,4.204,0.232266,
0.484,-66.9316,-3.9,0.766,0.244711,
0.486,-66.4427,-2.8,0.963,0.247377,
0.488,-65.9752,-2.5,-8.203,0.226755,
0.49,-65.4997,-3.4,8.593,0.233333,
0.492,-65.0542,-2.6,-3.832,0.221866,
0.494,-64.6642,-3.3,-18.093,0.200177,
0.496,-64.3077,-2.8,-12.317,0.1736,
0.498,-64.0447,-2.8,-32.727,0.111733,
0.5,-63.8353,-3.2,-7.353,0.087911,
0.502,-63.7053,-3.1,-26.34,0.049333,
0.504,-63.6961,-3.3,-30.887,0.004888,
0.506,-63.7529,-3,-16.443,-0.031999,
0.508,-63.9067,-3,-24.628,-0.093333,
0.51,-64.1216,-3.6,-7.111,-0.115555,
0.512,-64.4145,-3,-15.314,-0.152977,
0.514,-64.7887,-4.2,-25.003,-0.193688,
0.516,-65.2232,-4.3,-17.218,-0.223466,
0.518,-65.717,-4.2,-15.642,-0.253866,
0.52,-66.2602,-4.7,-8.347,-0.276711,
0.522,-66.8395,-5.3,-7.224,-0.294133,
0.524,-67.4364,-5.8,-7.152,-0.303822,
0.526,-68.0431,-6.9,-4.157,-0.305511,
0.528,-68.6418,-8,4.026,-0.294044,
0.53,-69.254,-8,1.699,-0.2984,
0.532,-69.8369,-9.2,7.694,-0.289155,
0.534,-70.3691,-11.2,9.528,-0.273422,
0.536,-70.8464,-35.7,22.795,-0.226222,
0.538,-71.1534,-52.1,53.69,-0.124799,
0.54,-71.2755,-52.1,47.062,-0.029866,
0.542,-71.1943,-52.1,44.915,0.056444,
0.544,-70.9917,-44.1,20.517,0.088977,
0.546,-70.8049,-32,-3.063,0.086311,
0.548,-70.6456,-25,-3.092,0.083022,
0.55,-70.5821,-20.6,-31.47,0.030933,
0.552,-70.5602,-20,-14.946,0.003733,
0.554,-70.5443,-18.7,6.948,0,
0.556,-70.5406,-18.8,9.226,0.003288,
0.558,-70.5058,-18.3,13.762,0.026577,
0.56,-70.4601,-15.5,-1.202,0.028711,
0.562,-70.3783,-12.6,10.572,0.047733,
0.564,-70.2483,-9.8,12.568,0.063999,
0.566,-70.0896,-8.3,8.589,0.086222,
0.568,-69.89,-7.4,11.239,0.105777,
0.57,-69.6495,-6.8,4.21,0.123733,
0.572,-69.3767,-6.5,9.741,0.14,
0.574,-69.0575,-5.9,14.904,0.168711,
0.576,-68.7035,-4.5,10.71,0.183377,
0.578,-68.3202,-3.9,3.719,0.189333,
0.58,-67.8832,-4.3,14.012,0.219644,
0.582,-67.4181,-3.5,6.756,0.234311,
0.584,-66.9432,-4,3.285,0.244711,
0.586,-66.4446,-2.9,1.922,0.250044,
0.588,-65.9679,-2.6,-8.542,0.231111,
0.59,-65.4851,-3.6,4.108,0.235466,
0.592,-65.0249,-2.8,-7.714,0.225155,
0.594,-64.6269,-3.5,-16.312,0.205599,
0.596,-64.2705,-2.9,-13.569,0.1736,
0.598,-64.0111,-2.8,-29.296,0.111199,
0.6,-63.8127,-3.3,-10.808,0.085155,
0.602,-63.7059,-2.9,-25.056,0.041244,
0.604,-63.7169,-3.2,-31.285,-0.005955,
0.606,-63.7853,-3.1,-19.097,-0.041777,
0.608,-63.9488,-3,-25.543,-0.097066,
0.61,-64.171,-3.9,-8.947,-0.118311,
0.612,-64.4566,-2.8,-16.527,-0.149688,
0.614,-64.8418,-3.8,-25.678,-0.195911,
0.616,-65.2727,-4.3,-13.516,-0.221333,
0.618,-65.7536,-4.6,-12.028,-0.248444,
0.62,-66.2859,-5.4,-7.243,-0.268622,
0.622,-66.851,-5.4,-8.324,-0.285866,
0.624,-67.4376,-6,-5.973,-0.297866,
0.626,-68.037,-7.2,-0.785,-0.301155,
0.628,-68.629,-8.1,5.858,-0.290755,
0.63,-69.2314,-8.2,0.259,-0.295644,
0.632,-69.8045,-9.4,6.339,-0.284266,
0.634,-70.3374,-10.9,5.257,-0.271822,
0.636,-70.8196,-33.8,18.071,-0.231199,
0.638,-71.1388,-52,52.581,-0.129688,
0.64,-71.2724,-52.1,42.92,-0.040088,
0.642,-71.198,-52.1,46.967,0.055288,
0.644,-71.0002,-45.3,19.119,0.0912,
0.646,-70.8122,-32.6,0.444,0.090044,
0.648,-70.6523,-25.3,-1.408,0.088444,
0.65,-70.5852,-20.7,-33.035,0.029777,
0.652,-70.5632,-19.8,-15.329,0.002133,
0.654,-70.5412,-18.7,0.412,0.001688,
0.656,-70.5406,-18.9,2.026,-0.000533,
0.658,-70.5107,-18.7,15.778,0.023911,
0.66,-70.4704,-16,-3.571,0.023911,
0.662,-70.3905,-13,7.471,0.043911,
0.664,-70.2641,-9.9,13.364,0.067288,
0.666,-70.1097,-8.3,8.53,0.080266,
0.668,-69.9004,-7.7,14.232,0.111199,
0.67,-69.6562,-7.2,5.147,0.128622,
0.672,-69.3724,-6.5,10.615,0.147022,
0.674,-69.0453,-6,15.392,0.171377,
0.676,-68.6821,-4.9,13.842,0.186666,
0.678,-68.2927,-4.1,3.155,0.190933,
0.68,-67.86,-4.7,9.112,0.216977,
0.682,-67.3967,-3.5,4.36,0.234933,
0.684,-66.9322,-4,1.998,0.243644,
0.686,-66.4409,-3.1,0.622,0.245777,
0.688,-65.9685,-2.7,-10.126,0.226755,
0.69,-65.4936,-3.5,6.492,0.235466,
0.692,-65.0401,-2.8,-5.299,0.224622,
0.694,-64.6477,-3.8,-17.544,0.203466,
0.696,-64.2918,-2.9,-15.126,0.174222,
0.698,-64.0312,-2.7,-29.108,0.110133,
0.7,-63.8255,-3.2,-7.535,0.087911,
0.702,-63.7114,-2.9,-22.221,0.047733,
0.704,-63.7175,-3.1,-33.014,-0.001066,
0.706,-63.7853,-3,-19.816,-0.041777,
0.708,-63.9525,-3,-30.133,-0.100355,
0.71,-64.1759,-4,-5.95,-0.117777,
0.712,-64.4664,-2.8,-14.101,-0.149777,
0.714,-64.8467,-3.8,-22.805,-0.194311,
0.716,-65.2806,-4.4,-13.178,-0.223555,
0.718,-65.7622,-4.9,-14.66,-0.249066,
0.72,-66.2914,-5.5,-4.084,-0.268088,
0.722,-66.8559,-5.6,-7.931,-0.285866,
0.724,-67.4382,-6.2,-8.775,-0.2968,
0.726,-68.0339,-7.3,-2.056,-0.2984,
0.728,-68.6223,-8.3,6.559,-0.288622,
0.73,-69.2217,-8.4,-2.716,-0.296266,
0.732,-69.7923,-9.6,8.247,-0.280977,
0.734,-70.3258,-10.9,8.806,-0.272355,
0.736,-70.811,-33.3,23.024,-0.235466,
0.738,-71.1302,-52,51.508,-0.131822,
0.74,-71.2718,-52.1,41.273,-0.044444,
0.742,-71.2053,-52.1,44.342,0.051022,
0.744,-71.0063,-45.8,20.113,0.0928,
0.746,-70.8177,-33,-3.889,0.087911,
0.748,-70.6535,-25.5,-2.882,0.086844,
0.75,-70.584,-20.7,-33.3,0.030844,
0.752,-70.5595,-19.7,-12.169,0.007644,
0.754,-70.5394,-18.6,2.407,0.000533,
0.756,-70.5406,-18.8,2.517,-0.002666,
0.758,-70.5095,-18.8,8.405,0.020622,
0.76,-70.4649,-16.1,-6.172,0.027199,
0.762,-70.3954,-13.1,10.239,0.039555,
0.764,-70.2696,-9.9,19.056,0.067822,
0.766,-70.1152,-8.3,6.276,0.081422,
0.768,-69.915,-7.8,11.231,0.104711,
0.77,-69.6709,-7.3,5.08,0.125333,
0.772,-69.3889,-6.5,7.932,0.1432,
0.774,-69.0624,-6,14.33,0.169777,
0.776,-68.6943,-5.1,10.966,0.187733,
0.778,-68.3,-4.2,7.374,0.198577,
0.78,-67.8685,-4.6,13.88,0.216977,
0.782,-67.4004,-3.8,5.169,0.234844,
0.784,-66.9322,-4.1,-6.252,0.241422,
0.786,-66.4415,-3.1,-0.481,0.246844,
0.788,-65.9697,-2.7,-5.978,0.226222,
0.79,-65.493,-3.7,13.679,0.235466,
0.792,-65.0383,-2.8,-4.434,0.224088,
0.794,-64.6458,-3.5,-27.289,0.199111,
0.796,-64.2864,-3,-14.121,0.173066,
0.798,-63.9891,-2.7,-17.697,0.140533,
0.8,-63.7645,-2.9,-7.644,0.109066,
0.802,-63.6058,-3,-15.489,0.072177,
0.804,-63.5094,-2.8,-16.818,0.0336,
0.806,-63.477,-3,-9.529,0.009777,
0.808,-63.4868,-2.8,-10.821,-0.008177,
0.81,-63.5356,-2.8,-3.564,-0.025511,
0.812,-63.6131,-2.7,-1.667,-0.040088,
0.814,-63.7114,-2.6,-5.516,-0.051555,
0.816,-63.8359,-2.6,-8.25,-0.065066,
0.818,-63.961,-2.6,-1.911,-0.062399,
0.82,-64.0886,-2.6,-1.802,-0.062933,
0.822,-64.2101,-2.6,4.705,-0.055911,
0.824,-64.3156,-2.7,2.316,-0.051999,
0.826,-64.4066,-2.6,1.629,-0.040711,
0.828,-64.4768,-2.6,4.289,-0.033688,
0.83,-64.5256,-2.6,4.289,-0.022755,
0.832,-64.5482,-2.6,6.42,-0.010311,
0.834,-64.55,-2.7,4.264,0.001066,
0.836,-64.5396,-2.8,2.78,0.007111,
0.838,-64.5195,-2.7,1.095,0.009244,
0.84,-64.4963,-2.8,-1.143,0.010311,
0.842,-64.4682,-2.8,-0.825,0.013066,
0.844,-64.4426,-2.7,2.665,0.014133,
0.846,-64.4157,-2.8,1.601,0.016355,
0.848,-64.398,-2.8,-0.751,0.011466,
0.85,-64.3767,-2.8,1.406,0.009777,
0.852,-64.3596,-2.7,-0.45,0.007022,
0.854,-64.3462,-2.8,-1.143,0.007022,
0.856,-64.3419,-2.8,-2.181,-0.001066,
0.858,-64.3407,-2.7,-0.929,0,
0.86,-64.3407,-2.6,0.164,0,
0.862,-64.3419,-2.6,0.25,-0.0016,
0.864,-64.3443,-2.6,-2.078,-0.002666,
0.866,-64.3413,-2.6,-3.738,-0.001066,
0.868,-64.3419,-2.7,0.189,0,
0.87,-64.3401,-2.6,-0.261,0.0016,
0.872,-64.3431,-2.7,-2.319,-0.0016,
0.874,-64.3419,-2.7,-1.678,-0.000533,
0.876,-64.3419,-2.6,-2.371,-0.0016,
0.878,-64.3407,-2.7,-1.064,0,
0.88,-64.3413,-2.7,0.436,0.000533,
0.882,-64.3407,-2.7,1.423,-0.000533,
0.884,-64.3413,-2.7,0.052,0.0016,
0.886,-64.3437,-2.7,0.828,-0.002133,
0.888,-64.3413,-2.7,-2.5,-0.002222,
0.89,-64.3407,-2.7,-4.221,-0.000533,
0.892,-64.3419,-2.7,-0.435,0.000533,
0.894,-64.3407,-2.6,-1.324,-0.000533,
0.896,-64.3401,-2.7,0.558,0.001066,
0.898,-64.3431,-2.6,-3.756,-0.002666,
0.9,-64.3431,-2.6,-3.499,-0.002666,
0.902,-64.3437,-2.6,-3.088,-0.002666,
0.904,-64.3419,-2.6,3.91,0.001066,
0.906,-64.3431,-2.7,0.237,-0.000533,
0.908,-64.3425,-2.6,-1.994,-0.001066,
0.91,-64.3407,-2.7,2.034,0.002133,
0.912,-64.3407,-2.7,-3.426,-0.001688,
0.914,-64.3407,-2.6,-1.882,0.000533,
0.916,-64.3431,-2.6,-3.364,-0.003822,
0.918,-64.3407,-2.7,0.373,0,
0.92,-64.3407,-2.6,2.394,0.002133,
0.922,-64.3401,-2.7,2.995,0.001066,
0.924,-64.3401,-2.7,0.295,0.001066,
0.926,-64.3407,-2.7,-0.352,0,
0.928,-64.3413,-2.6,1.873,0,
0.93,-64.3431,-2.7,-1.705,-0.001066,
0.932,-64.3413,-2.6,-1.297,-0.0016,
0.934,-64.3407,-2.7,1.361,0.001066,
0.936,-64.3407,-2.7,3.761,0.004355,
0.938,-64.3407,-2.7,-1.927,0.002666,
0.94,-64.3407,-2.6,-2.215,0,
0.942,-64.348,-2.6,3.908,-0.001066,
0.944,-64.3431,-2.6,2.27,0,
0.946,-64.3413,-2.6,4.699,-0.000533,
0.948,-64.3425,-2.6,5.321,0.0016,
0.95,-64.3431,-2.6,-1.408,-0.002133,
0.952,-64.3431,-2.7,-0.821,-0.0016,
0.954,-64.3437,-2.6,-1.471,-0.003733,
0.956,-64.3401,-2.7,0.207,0.000533,
0.958,-64.3419,-2.7,0.297,-0.0016,
0.96,-64.3437,-2.7,0.683,0.000533,
0.962,-64.3401,-2.7,0.334,0.000533,
0.964,-64.3413,-2.6,-1.437,0,
0.966,-64.3456,-2.7,-4.033,-0.004888,
0.968,-64.3449,-2.7,3.891,-0.000533,
0.97,-64.3407,-2.7,1.563,0.001066,
0.972,-64.3437,-2.7,1.089,-0.002666,
0.974,-64.3419,-2.6,0.665,0.002666,
0.976,-64.3413,-2.6,2.672,0,
0.978,-64.3407,-2.7,5.07,0.001066,
0.98,-64.3407,-2.6,0.712,0.001066,
0.982,-64.3407,-2.6,-1.709,0,
0.984,-64.3425,-2.7,-3.676,-0.0016,
0.986,-64.3413,-2.6,1.834,0,
0.988,-64.3413,-2.6,2.049,-0.000533,
0.99,-64.3443,-2.6,5.541,-0.0016,
0.992,-64.3462,-2.6,1.882,-0.003288,
0.994,-64.3407,-2.7,2.683,0.0032,
0.996,-64.3395,-2.7,1.264,0.000533,
0.998,-64.3419,-2.7,-3.89,-0.0016,
1,-64.3401,-2.7,-0.606,0.000533,
1.002,-64.3456,-2.7,-0.225,-0.004355,
1.004,-64.3437,-2.6,1.146,-0.0016,
1.006,-64.3431,-2.6,-0.946,-0.002133,
1.008,-64.3407,-2.7,-1.887,0.000533,
1.01,-64.3401,-2.6,-1.56,0,
1.012,-64.3407,-2.6,-0.805,-0.002222,
1.014,-64.3407,-2.7,2.863,-0.000533,
1.016,-64.3462,-2.6,4.147,-0.000533,
1.018,-64.3395,-2.7,-1.988,0.002666,
1.02,-64.3413,-2.7,-0.941,-0.000533,
1.022,-64.3443,-2.6,5.108,-0.002133,
1.024,-64.3407,-2.6,2.725,0.0032,
1.026,-64.3413,-2.6,1.595,-0.000533,
1.028,-64.3431,-2.6,-1.994,-0.0016,
1.03,-64.3443,-2.7,-0.39,-0.002133,
1.032,-64.3401,-2.6,1.699,0.002666,
1.034,-64.3413,-2.6,-1.179,0.0016,
1.036,-64.3443,-2.7,-7.669,-0.003733,
1.038,-64.3449,-2.7,-3.439,-0.002666,
1.04,-64.3413,-2.7,-3.207,-0.002222,
1.042,-64.3468,-2.6,-1.946,-0.005422,
1.044,-64.3425,-2.7,-0.16,-0.000533,
1.046,-64.3431,-2.7,2.162,-0.002133,
1.048,-64.3431,-2.6,-0.076,-0.002133,
1.05,-64.3413,-2.7,0.186,-0.000533,
1.052,-64.3413,-2.7,-1.161,-0.000533,
1.054,-64.3407,-2.6,-0.751,0,
1.056,-64.3407,-2.6,-0.883,0.0032,
1.058,-64.3425,-2.6,0.484,-0.002133,
1.06,-64.3425,-2.6,-0.587,-0.001066,
1.062,-64.3419,-2.7,2.935,0,
1.064,-64.3425,-2.6,-1.414,-0.001066,
1.066,-64.3431,-2.6,-0.485,-0.002666,
1.068,-64.3407,-2.7,1.634,0.002666,
1.07,-64.3407,-2.6,1.006,0.002666,
1.072,-64.3419,-2.7,2.536,-0.001066,
1.074,-64.3407,-2.6,-2.186,0.001066,
1.076,-64.3407,-2.6,-1.796,-0.000533,
1.078,-64.3401,-2.6,-2.165,-0.000533,
1.08,-64.3401,-2.6,0.649,0,
1.082,-64.3413,-2.7,-0.287,0.000533,
1.084,-64.3413,-2.6,-0.461,0.000533,
1.086,-64.3419,-2.6,2.094,0.002133,
1.088,-64.3401,-2.6,-0.509,0.000533,
